Incident energy ; MT=16 : (z,2n) ; MT=17 : (z,3n) ; MT=22 : (z,n+α) ; MT=28 : (z,n+p) ; MT=102 : (z,γ) ; MT=103 : (z,p) ; MT=107 : (z,α)
Incident energy ;  ;  ;  ;  ;  ;  ; 
Incident energy ; σ(E) ; σ(E) ; σ(E) ; σ(E) ; σ(E) ; σ(E) ; σ(E)
1.0E-5 ;  ;  ;  ;  ; 0.04417142 ;  ; 
1.0625E-5 ;  ;  ;  ;  ; 0.04285257 ;  ; 
1.125E-5 ;  ;  ;  ;  ; 0.04164521 ;  ; 
1.1875E-5 ;  ;  ;  ;  ; 0.04053447 ;  ; 
1.25E-5 ;  ;  ;  ;  ; 0.03950811 ;  ; 
1.375E-5 ;  ;  ;  ;  ; 0.03766951 ;  ; 
1.5E-5 ;  ;  ;  ;  ; 0.03606581 ;  ; 
1.625E-5 ;  ;  ;  ;  ; 0.03465091 ;  ; 
1.75E-5 ;  ;  ;  ;  ; 0.03339045 ;  ; 
1.875E-5 ;  ;  ;  ;  ; 0.03225824 ;  ; 
2.0E-5 ;  ;  ;  ;  ; 0.03123391 ;  ; 
2.1875E-5 ;  ;  ;  ;  ; 0.02986533 ;  ; 
2.375E-5 ;  ;  ;  ;  ; 0.0286622 ;  ; 
2.5625E-5 ;  ;  ;  ;  ; 0.02759366 ;  ; 
2.75E-5 ;  ;  ;  ;  ; 0.02663636 ;  ; 
2.9375E-5 ;  ;  ;  ;  ; 0.02577225 ;  ; 
3.125E-5 ;  ;  ;  ;  ; 0.02498712 ;  ; 
3.3125E-5 ;  ;  ;  ;  ; 0.02426964 ;  ; 
3.5E-5 ;  ;  ;  ;  ; 0.02361061 ;  ; 
3.875E-5 ;  ;  ;  ;  ; 0.0224391 ;  ; 
4.25E-5 ;  ;  ;  ;  ; 0.02142628 ;  ; 
4.625E-5 ;  ;  ;  ;  ; 0.02053929 ;  ; 
5.0E-5 ;  ;  ;  ;  ; 0.01975405 ;  ; 
5.3125E-5 ;  ;  ;  ;  ; 0.01916424 ;  ; 
5.625E-5 ;  ;  ;  ;  ; 0.0186243 ;  ; 
5.9375E-5 ;  ;  ;  ;  ; 0.01812756 ;  ; 
6.25E-5 ;  ;  ;  ;  ; 0.01766856 ;  ; 
6.875E-5 ;  ;  ;  ;  ; 0.01684631 ;  ; 
7.5E-5 ;  ;  ;  ;  ; 0.01612911 ;  ; 
8.125E-5 ;  ;  ;  ;  ; 0.01549635 ;  ; 
8.75E-5 ;  ;  ;  ;  ; 0.01493265 ;  ; 
9.375E-5 ;  ;  ;  ;  ; 0.01442631 ;  ; 
1.0E-4 ;  ;  ;  ;  ; 0.01396822 ;  ; 
1.0625E-4 ;  ;  ;  ;  ; 0.01355116 ;  ; 
1.125E-4 ;  ;  ;  ;  ; 0.01316936 ;  ; 
1.1875E-4 ;  ;  ;  ;  ; 0.01281811 ;  ; 
1.25E-4 ;  ;  ;  ;  ; 0.01249355 ;  ; 
1.375E-4 ;  ;  ;  ;  ; 0.01191213 ;  ; 
1.5E-4 ;  ;  ;  ;  ; 0.011405 ;  ; 
1.625E-4 ;  ;  ;  ;  ; 0.01095757 ;  ; 
1.75E-4 ;  ;  ;  ;  ; 0.01055897 ;  ; 
1.875E-4 ;  ;  ;  ;  ; 0.01020094 ;  ; 
2.0E-4 ;  ;  ;  ;  ; 0.009877013 ;  ; 
2.1875E-4 ;  ;  ;  ;  ; 0.009444229 ;  ; 
2.375E-4 ;  ;  ;  ;  ; 0.009063766 ;  ; 
2.5625E-4 ;  ;  ;  ;  ; 0.008725865 ;  ; 
2.75E-4 ;  ;  ;  ;  ; 0.00842314 ;  ; 
2.9375E-4 ;  ;  ;  ;  ; 0.008149883 ;  ; 
3.125E-4 ;  ;  ;  ;  ; 0.007901604 ;  ; 
3.3125E-4 ;  ;  ;  ;  ; 0.007674715 ;  ; 
3.5E-4 ;  ;  ;  ;  ; 0.007466312 ;  ; 
3.875E-4 ;  ;  ;  ;  ; 0.007095846 ;  ; 
4.25E-4 ;  ;  ;  ;  ; 0.006775565 ;  ; 
4.625E-4 ;  ;  ;  ;  ; 0.006495073 ;  ; 
5.0E-4 ;  ;  ;  ;  ; 0.006246761 ;  ; 
5.3125E-4 ;  ;  ;  ;  ; 0.006060248 ;  ; 
5.625E-4 ;  ;  ;  ;  ; 0.005889502 ;  ; 
5.9375E-4 ;  ;  ;  ;  ; 0.00573242 ;  ; 
6.25E-4 ;  ;  ;  ;  ; 0.005587272 ;  ; 
6.875E-4 ;  ;  ;  ;  ; 0.005327255 ;  ; 
7.5E-4 ;  ;  ;  ;  ; 0.005100458 ;  ; 
8.125E-4 ;  ;  ;  ;  ; 0.004900363 ;  ; 
8.75E-4 ;  ;  ;  ;  ; 0.004722108 ;  ; 
9.375E-4 ;  ;  ;  ;  ; 0.004561991 ;  ; 
0.001 ;  ;  ;  ;  ; 0.00441713 ;  ; 
0.0010625 ;  ;  ;  ;  ; 0.004285247 ;  ; 
0.001125 ;  ;  ;  ;  ; 0.004164513 ;  ; 
0.0011875 ;  ;  ;  ;  ; 0.004053441 ;  ; 
0.00125 ;  ;  ;  ;  ; 0.003950807 ;  ; 
0.001375 ;  ;  ;  ;  ; 0.00376695 ;  ; 
0.0015 ;  ;  ;  ;  ; 0.003606583 ;  ; 
0.001625 ;  ;  ;  ;  ; 0.003465096 ;  ; 
0.00175 ;  ;  ;  ;  ; 0.003339054 ;  ; 
0.001875 ;  ;  ;  ;  ; 0.003225836 ;  ; 
0.002 ;  ;  ;  ;  ; 0.003123406 ;  ; 
0.0021875 ;  ;  ;  ;  ; 0.002986553 ;  ; 
0.002375 ;  ;  ;  ;  ; 0.002866244 ;  ; 
0.0025625 ;  ;  ;  ;  ; 0.002759395 ;  ; 
0.00275 ;  ;  ;  ;  ; 0.002663668 ;  ; 
0.0029375 ;  ;  ;  ;  ; 0.002577259 ;  ; 
0.003125 ;  ;  ;  ;  ; 0.002498748 ;  ; 
0.0033125 ;  ;  ;  ;  ; 0.002427 ;  ; 
0.0035 ;  ;  ;  ;  ; 0.002361097 ;  ; 
0.003875 ;  ;  ;  ;  ; 0.002243944 ;  ; 
0.00425 ;  ;  ;  ;  ; 0.002142658 ;  ; 
0.004625 ;  ;  ;  ;  ; 0.002053954 ;  ; 
0.005 ;  ;  ;  ;  ; 0.001975426 ;  ; 
0.0053125 ;  ;  ;  ;  ; 0.001916441 ;  ; 
0.005625 ;  ;  ;  ;  ; 0.001862443 ;  ; 
0.0059375 ;  ;  ;  ;  ; 0.001812765 ;  ; 
0.00625 ;  ;  ;  ;  ; 0.00176686 ;  ; 
0.006875 ;  ;  ;  ;  ; 0.001684624 ;  ; 
0.0075 ;  ;  ;  ;  ; 0.001612891 ;  ; 
0.008125 ;  ;  ;  ;  ; 0.0015496 ;  ; 
0.00875 ;  ;  ;  ;  ; 0.00149322 ;  ; 
0.009375 ;  ;  ;  ;  ; 0.001442579 ;  ; 
0.01 ;  ;  ;  ;  ; 0.00139677 ;  ; 
0.010625 ;  ;  ;  ;  ; 0.001355071 ;  ; 
0.01125 ;  ;  ;  ;  ; 0.001316902 ;  ; 
0.011875 ;  ;  ;  ;  ; 0.00128179 ;  ; 
0.0125 ;  ;  ;  ;  ; 0.001249347 ;  ; 
0.01375 ;  ;  ;  ;  ; 0.001191221 ;  ; 
0.015 ;  ;  ;  ;  ; 0.001140505 ;  ; 
0.01625 ;  ;  ;  ;  ; 0.001095744 ;  ; 
0.0175 ;  ;  ;  ;  ; 0.00105586 ;  ; 
0.01875 ;  ;  ;  ;  ; 0.001020032 ;  ; 
0.02 ;  ;  ;  ;  ; 9.876212E-4 ;  ; 
0.021325 ;  ;  ;  ;  ; 9.564353E-4 ;  ; 
0.02265 ;  ;  ;  ;  ; 9.280398E-4 ;  ; 
0.023975 ;  ;  ;  ;  ; 9.020457E-4 ;  ; 
0.0253 ;  ;  ;  ;  ; 8.781343E-4 ;  ; 
0.02684375 ;  ;  ;  ;  ; 8.52551E-4 ;  ; 
0.0283875 ;  ;  ;  ;  ; 8.29087E-4 ;  ; 
0.031475 ;  ;  ;  ;  ; 7.874248E-4 ;  ; 
0.0345625 ;  ;  ;  ;  ; 7.514277E-4 ;  ; 
0.03765 ;  ;  ;  ;  ; 7.19924E-4 ;  ; 
0.0407375 ;  ;  ;  ;  ; 6.920666E-4 ;  ; 
0.043825 ;  ;  ;  ;  ; 6.672109E-4 ;  ; 
0.0469125 ;  ;  ;  ;  ; 6.448565E-4 ;  ; 
0.05 ;  ;  ;  ;  ; 6.246126E-4 ;  ; 
0.053125 ;  ;  ;  ;  ; 6.059573E-4 ;  ; 
0.05625 ;  ;  ;  ;  ; 5.888946E-4 ;  ; 
0.059375 ;  ;  ;  ;  ; 5.732144E-4 ;  ; 
0.0625 ;  ;  ;  ;  ; 5.58735E-4 ;  ; 
0.06875 ;  ;  ;  ;  ; 5.32777E-4 ;  ; 
0.075 ;  ;  ;  ;  ; 5.100858E-4 ;  ; 
0.08125 ;  ;  ;  ;  ; 4.900477E-4 ;  ; 
0.0875 ;  ;  ;  ;  ; 4.721979E-4 ;  ; 
0.09375 ;  ;  ;  ;  ; 4.561677E-4 ;  ; 
0.1 ;  ;  ;  ;  ; 4.416678E-4 ;  ; 
0.10625 ;  ;  ;  ;  ; 4.284706E-4 ;  ; 
0.1125 ;  ;  ;  ;  ; 4.163984E-4 ;  ; 
0.11875 ;  ;  ;  ;  ; 4.053128E-4 ;  ; 
0.125 ;  ;  ;  ;  ; 3.950894E-4 ;  ; 
0.1375 ;  ;  ;  ;  ; 3.767475E-4 ;  ; 
0.15 ;  ;  ;  ;  ; 3.606904E-4 ;  ; 
0.1625 ;  ;  ;  ;  ; 3.465184E-4 ;  ; 
0.175 ;  ;  ;  ;  ; 3.338973E-4 ;  ; 
0.1875 ;  ;  ;  ;  ; 3.225715E-4 ;  ; 
0.2 ;  ;  ;  ;  ; 3.123526E-4 ;  ; 
0.21875 ;  ;  ;  ;  ; 2.986863E-4 ;  ; 
0.2375 ;  ;  ;  ;  ; 2.866373E-4 ;  ; 
0.25625 ;  ;  ;  ;  ; 2.759367E-4 ;  ; 
0.275 ;  ;  ;  ;  ; 2.663524E-4 ;  ; 
0.29375 ;  ;  ;  ;  ; 2.577028E-4 ;  ; 
0.3125 ;  ;  ;  ;  ; 2.498454E-4 ;  ; 
0.33125 ;  ;  ;  ;  ; 2.426732E-4 ;  ; 
0.35 ;  ;  ;  ;  ; 2.36127E-4 ;  ; 
0.3875 ;  ;  ;  ;  ; 2.244472E-4 ;  ; 
0.425 ;  ;  ;  ;  ; 2.142975E-4 ;  ; 
0.5 ;  ;  ;  ;  ; 1.975918E-4 ;  ; 
0.625 ;  ;  ;  ;  ; 1.767337E-4 ;  ; 
0.75 ;  ;  ;  ;  ; 1.613108E-4 ;  ; 
0.875 ;  ;  ;  ;  ; 1.493678E-4 ;  ; 
1.0 ;  ;  ;  ;  ; 1.39743E-4 ;  ; 
1.25 ;  ;  ;  ;  ; 1.249658E-4 ;  ; 
1.5 ;  ;  ;  ;  ; 1.140659E-4 ;  ; 
1.75 ;  ;  ;  ;  ; 1.056166E-4 ;  ; 
2.0 ;  ;  ;  ;  ; 9.880081E-5 ;  ; 
2.375 ;  ;  ;  ;  ; 9.06666E-5 ;  ; 
2.75 ;  ;  ;  ;  ; 8.426871E-5 ;  ; 
3.125 ;  ;  ;  ;  ; 7.904635E-5 ;  ; 
3.5 ;  ;  ;  ;  ; 7.468928E-5 ;  ; 
4.25 ;  ;  ;  ;  ; 6.777807E-5 ;  ; 
5.0 ;  ;  ;  ;  ; 6.249367E-5 ;  ; 
6.25 ;  ;  ;  ;  ; 5.590231E-5 ;  ; 
7.5 ;  ;  ;  ;  ; 5.103473E-5 ;  ; 
8.75 ;  ;  ;  ;  ; 4.725651E-5 ;  ; 
10.0 ;  ;  ;  ;  ; 4.421186E-5 ;  ; 
12.5 ;  ;  ;  ;  ; 3.955113E-5 ;  ; 
15.0 ;  ;  ;  ;  ; 3.611249E-5 ;  ; 
17.5 ;  ;  ;  ;  ; 3.344284E-5 ;  ; 
20.0 ;  ;  ;  ;  ; 3.129106E-5 ;  ; 
23.75 ;  ;  ;  ;  ; 2.872508E-5 ;  ; 
27.5 ;  ;  ;  ;  ; 2.670557E-5 ;  ; 
31.25 ;  ;  ;  ;  ; 2.50607E-5 ;  ; 
35.0 ;  ;  ;  ;  ; 2.368851E-5 ;  ; 
42.5 ;  ;  ;  ;  ; 2.151253E-5 ;  ; 
50.0 ;  ;  ;  ;  ; 1.98486E-5 ;  ; 
62.5 ;  ;  ;  ;  ; 1.777541E-5 ;  ; 
75.0 ;  ;  ;  ;  ; 1.624676E-5 ;  ; 
87.5 ;  ;  ;  ;  ; 1.506067E-5 ;  ; 
100.0 ;  ;  ;  ;  ; 1.41059E-5 ;  ; 
125.0 ;  ;  ;  ;  ; 1.264819E-5 ;  ; 
150.0 ;  ;  ;  ;  ; 1.15751E-5 ;  ; 
175.0 ;  ;  ;  ;  ; 1.074354E-5 ;  ; 
200.0 ;  ;  ;  ;  ; 1.0075E-5 ;  ; 
237.5 ;  ;  ;  ;  ; 9.280372E-6 ;  ; 
275.0 ;  ;  ;  ;  ; 8.657106E-6 ;  ; 
312.5 ;  ;  ;  ;  ; 8.151693E-6 ;  ; 
350.0 ;  ;  ;  ;  ; 7.731671E-6 ;  ; 
425.0 ;  ;  ;  ;  ; 7.069414E-6 ;  ; 
500.0 ;  ;  ;  ;  ; 6.566996E-6 ;  ; 
625.0 ;  ;  ;  ;  ; 5.947935E-6 ;  ; 
750.0 ;  ;  ;  ;  ; 5.4983E-6 ;  ; 
875.0 ;  ;  ;  ;  ; 5.154828E-6 ;  ; 
1000.0 ;  ;  ;  ;  ; 4.882951E-6 ;  ; 
1250.0 ;  ;  ;  ;  ; 4.478922E-6 ;  ; 
1500.0 ;  ;  ;  ;  ; 4.193558E-6 ;  ; 
1750.0 ;  ;  ;  ;  ; 3.982847E-6 ;  ; 
2000.0 ;  ;  ;  ;  ; 3.822982E-6 ;  ; 
2750.0 ;  ;  ;  ;  ; 3.533584E-6 ;  ; 
3500.0 ;  ;  ;  ;  ; 3.433742E-6 ;  ; 
4250.0 ;  ;  ;  ;  ; 3.564653E-6 ;  ; 
5000.0 ;  ;  ;  ;  ; 5.051087E-6 ;  ; 
5080.733 ;  ;  ;  ;  ; 5.686809E-6 ;  ; 
5121.099 ;  ;  ;  ;  ; 6.132623E-6 ;  ; 
5161.465 ;  ;  ;  ;  ; 6.706978E-6 ;  ; 
5201.831 ;  ;  ;  ;  ; 7.464089E-6 ;  ; 
5222.014 ;  ;  ;  ;  ; 7.920133E-6 ;  ; 
5242.197 ;  ;  ;  ;  ; 8.455522E-6 ;  ; 
5262.38 ;  ;  ;  ;  ; 9.098881E-6 ;  ; 
5282.563 ;  ;  ;  ;  ; 9.865829E-6 ;  ; 
5302.746 ;  ;  ;  ;  ; 1.079081E-5 ;  ; 
5322.929 ;  ;  ;  ;  ; 1.192185E-5 ;  ; 
5340.738 ;  ;  ;  ;  ; 1.314331E-5 ;  ; 
5358.547 ;  ;  ;  ;  ; 1.464154E-5 ;  ; 
5376.356 ;  ;  ;  ;  ; 1.650516E-5 ;  ; 
5394.164 ;  ;  ;  ;  ; 1.886094E-5 ;  ; 
5403.069 ;  ;  ;  ;  ; 2.022161E-5 ;  ; 
5411.973 ;  ;  ;  ;  ; 2.182066E-5 ;  ; 
5420.877 ;  ;  ;  ;  ; 2.365355E-5 ;  ; 
5429.781 ;  ;  ;  ;  ; 2.576815E-5 ;  ; 
5438.686 ;  ;  ;  ;  ; 2.822586E-5 ;  ; 
5447.59 ;  ;  ;  ;  ; 3.110506E-5 ;  ; 
5456.494 ;  ;  ;  ;  ; 3.450941E-5 ;  ; 
5465.398 ;  ;  ;  ;  ; 3.857613E-5 ;  ; 
5473.709 ;  ;  ;  ;  ; 4.313785E-5 ;  ; 
5482.02 ;  ;  ;  ;  ; 4.865769E-5 ;  ; 
5490.331 ;  ;  ;  ;  ; 5.540679E-5 ;  ; 
5498.641 ;  ;  ;  ;  ; 6.351932E-5 ;  ; 
5506.952 ;  ;  ;  ;  ; 7.392644E-5 ;  ; 
5511.107 ;  ;  ;  ;  ; 8.016789E-5 ;  ; 
5515.262 ;  ;  ;  ;  ; 8.727042E-5 ;  ; 
5519.418 ;  ;  ;  ;  ; 9.54008E-5 ;  ; 
5523.573 ;  ;  ;  ;  ; 1.047625E-4 ;  ; 
5527.728 ;  ;  ;  ;  ; 1.156218E-4 ;  ; 
5531.883 ;  ;  ;  ;  ; 1.283195E-4 ;  ; 
5536.336 ;  ;  ;  ;  ; 1.444738E-4 ;  ; 
5540.788 ;  ;  ;  ;  ; 1.639649E-4 ;  ; 
5545.24 ;  ;  ;  ;  ; 1.877863E-4 ;  ; 
5549.692 ;  ;  ;  ;  ; 2.171833E-4 ;  ; 
5551.919 ;  ;  ;  ;  ; 2.34329E-4 ;  ; 
5554.145 ;  ;  ;  ;  ; 2.538526E-4 ;  ; 
5556.371 ;  ;  ;  ;  ; 2.760828E-4 ;  ; 
5558.597 ;  ;  ;  ;  ; 3.014202E-4 ;  ; 
5560.823 ;  ;  ;  ;  ; 3.304593E-4 ;  ; 
5563.049 ;  ;  ;  ;  ; 3.639588E-4 ;  ; 
5565.275 ;  ;  ;  ;  ; 4.028835E-4 ;  ; 
5567.501 ;  ;  ;  ;  ; 4.484742E-4 ;  ; 
5569.876 ;  ;  ;  ;  ; 5.063005E-4 ;  ; 
5572.25 ;  ;  ;  ;  ; 5.761641E-4 ;  ; 
5574.625 ;  ;  ;  ;  ; 6.61736E-4 ;  ; 
5576.999 ;  ;  ;  ;  ; 7.67823E-4 ;  ; 
5579.374 ;  ;  ;  ;  ; 9.011043E-4 ;  ; 
5580.561 ;  ;  ;  ;  ; 9.812001E-4 ;  ; 
5581.748 ;  ;  ;  ;  ; 0.001072859 ;  ; 
5582.936 ;  ;  ;  ;  ; 0.001178479 ;  ; 
5584.123 ;  ;  ;  ;  ; 0.001300681 ;  ; 
5585.31 ;  ;  ;  ;  ; 0.001443164 ;  ; 
5586.497 ;  ;  ;  ;  ; 0.001610683 ;  ; 
5587.759 ;  ;  ;  ;  ; 0.001823313 ;  ; 
5589.02 ;  ;  ;  ;  ; 0.002081331 ;  ; 
5590.282 ;  ;  ;  ;  ; 0.002399197 ;  ; 
5591.543 ;  ;  ;  ;  ; 0.002796193 ;  ; 
5592.174 ;  ;  ;  ;  ; 0.003033237 ;  ; 
5592.805 ;  ;  ;  ;  ; 0.003302168 ;  ; 
5593.436 ;  ;  ;  ;  ; 0.003609237 ;  ; 
5594.066 ;  ;  ;  ;  ; 0.00396178 ;  ; 
5594.697 ;  ;  ;  ;  ; 0.004371033 ;  ; 
5595.328 ;  ;  ;  ;  ; 0.004849541 ;  ; 
5595.959 ;  ;  ;  ;  ; 0.005414417 ;  ; 
5596.589 ;  ;  ;  ;  ; 0.006087392 ;  ; 
5597.257 ;  ;  ;  ;  ; 0.006955058 ;  ; 
5597.925 ;  ;  ;  ;  ; 0.008035183 ;  ; 
5598.259 ;  ;  ;  ;  ; 0.008679723 ;  ; 
5598.593 ;  ;  ;  ;  ; 0.009413418 ;  ; 
5598.927 ;  ;  ;  ;  ; 0.01025782 ;  ; 
5599.26 ;  ;  ;  ;  ; 0.01124097 ;  ; 
5599.594 ;  ;  ;  ;  ; 0.01241624 ;  ; 
5599.928 ;  ;  ;  ;  ; 0.01385643 ;  ; 
5600.262 ;  ;  ;  ;  ; 0.01568504 ;  ; 
5600.429 ;  ;  ;  ;  ; 0.01680447 ;  ; 
5600.596 ;  ;  ;  ;  ; 0.01810661 ;  ; 
5600.763 ;  ;  ;  ;  ; 0.01963835 ;  ; 
5600.93 ;  ;  ;  ;  ; 0.02145971 ;  ; 
5601.097 ;  ;  ;  ;  ; 0.02364712 ;  ; 
5601.264 ;  ;  ;  ;  ; 0.02629731 ;  ; 
5601.431 ;  ;  ;  ;  ; 0.02953185 ;  ; 
5601.598 ;  ;  ;  ;  ; 0.0335023 ;  ; 
5601.765 ;  ;  ;  ;  ; 0.03839603 ;  ; 
5601.931 ;  ;  ;  ;  ; 0.04440226 ;  ; 
5602.108 ;  ;  ;  ;  ; 0.05236934 ;  ; 
5602.284 ;  ;  ;  ;  ; 0.06227815 ;  ; 
5602.46 ;  ;  ;  ;  ; 0.07463769 ;  ; 
5602.548 ;  ;  ;  ;  ; 0.0819058 ;  ; 
5602.636 ;  ;  ;  ;  ; 0.09000078 ;  ; 
5602.725 ;  ;  ;  ;  ; 0.09911366 ;  ; 
5602.813 ;  ;  ;  ;  ; 0.1091295 ;  ; 
5602.989 ;  ;  ;  ;  ; 0.1325458 ;  ; 
5603.165 ;  ;  ;  ;  ; 0.1611731 ;  ; 
5603.341 ;  ;  ;  ;  ; 0.1959225 ;  ; 
5603.518 ;  ;  ;  ;  ; 0.2380382 ;  ; 
5603.694 ;  ;  ;  ;  ; 0.2880869 ;  ; 
5603.87 ;  ;  ;  ;  ; 0.3473493 ;  ; 
5604.046 ;  ;  ;  ;  ; 0.4168798 ;  ; 
5604.223 ;  ;  ;  ;  ; 0.4981721 ;  ; 
5604.399 ;  ;  ;  ;  ; 0.5912063 ;  ; 
5604.575 ;  ;  ;  ;  ; 0.6971386 ;  ; 
5604.751 ;  ;  ;  ;  ; 0.816471 ;  ; 
5604.946 ;  ;  ;  ;  ; 0.9645766 ;  ; 
5605.141 ;  ;  ;  ;  ; 1.129152 ;  ; 
5605.336 ;  ;  ;  ;  ; 1.30934 ;  ; 
5605.53 ;  ;  ;  ;  ; 1.502547 ;  ; 
5606.309 ;  ;  ;  ;  ; 2.361287 ;  ; 
5606.717 ;  ;  ;  ;  ; 2.800509 ;  ; 
5607.125 ;  ;  ;  ;  ; 3.170778 ;  ; 
5607.329 ;  ;  ;  ;  ; 3.315222 ;  ; 
5607.533 ;  ;  ;  ;  ; 3.425788 ;  ; 
5607.774 ;  ;  ;  ;  ; 3.50759 ;  ; 
5607.984 ;  ;  ;  ;  ; 3.532791 ;  ; 
5608.0 ;  ;  ;  ;  ; 3.53291 ;  ; 
5608.051 ;  ;  ;  ;  ; 3.531578 ;  ; 
5608.101 ;  ;  ;  ;  ; 3.527749 ;  ; 
5608.201 ;  ;  ;  ;  ; 3.512638 ;  ; 
5608.402 ;  ;  ;  ;  ; 3.452772 ;  ; 
5608.737 ;  ;  ;  ;  ; 3.271185 ;  ; 
5608.804 ;  ;  ;  ;  ; 3.223759 ;  ; 
5608.938 ;  ;  ;  ;  ; 3.119118 ;  ; 
5609.34 ;  ;  ;  ;  ; 2.741067 ;  ; 
5609.742 ;  ;  ;  ;  ; 2.302937 ;  ; 
5610.111 ;  ;  ;  ;  ; 1.887596 ;  ; 
5610.479 ;  ;  ;  ;  ; 1.492621 ;  ; 
5610.848 ;  ;  ;  ;  ; 1.138473 ;  ; 
5611.032 ;  ;  ;  ;  ; 0.9820073 ;  ; 
5611.216 ;  ;  ;  ;  ; 0.8401443 ;  ; 
5611.392 ;  ;  ;  ;  ; 0.7183565 ;  ; 
5611.568 ;  ;  ;  ;  ; 0.6100195 ;  ; 
5611.744 ;  ;  ;  ;  ; 0.5146804 ;  ; 
5611.92 ;  ;  ;  ;  ; 0.4316474 ;  ; 
5612.096 ;  ;  ;  ;  ; 0.3600532 ;  ; 
5612.272 ;  ;  ;  ;  ; 0.2989146 ;  ; 
5612.448 ;  ;  ;  ;  ; 0.2471853 ;  ; 
5612.624 ;  ;  ;  ;  ; 0.2038019 ;  ; 
5612.8 ;  ;  ;  ;  ; 0.1677207 ;  ; 
5612.976 ;  ;  ;  ;  ; 0.1379469 ;  ; 
5613.152 ;  ;  ;  ;  ; 0.113555 ;  ; 
5613.24 ;  ;  ;  ;  ; 0.1031105 ;  ; 
5613.328 ;  ;  ;  ;  ; 0.09370252 ;  ; 
5613.416 ;  ;  ;  ;  ; 0.08523991 ;  ; 
5613.504 ;  ;  ;  ;  ; 0.07763726 ;  ; 
5613.68 ;  ;  ;  ;  ; 0.064699 ;  ; 
5613.856 ;  ;  ;  ;  ; 0.05431765 ;  ; 
5614.031 ;  ;  ;  ;  ; 0.04605036 ;  ; 
5614.199 ;  ;  ;  ;  ; 0.03966866 ;  ; 
5614.367 ;  ;  ;  ;  ; 0.03451077 ;  ; 
5614.535 ;  ;  ;  ;  ; 0.03033322 ;  ; 
5614.702 ;  ;  ;  ;  ; 0.02695521 ;  ; 
5614.87 ;  ;  ;  ;  ; 0.02417578 ;  ; 
5615.037 ;  ;  ;  ;  ; 0.02190015 ;  ; 
5615.205 ;  ;  ;  ;  ; 0.01999839 ;  ; 
5615.372 ;  ;  ;  ;  ; 0.01841259 ;  ; 
5615.54 ;  ;  ;  ;  ; 0.01705994 ;  ; 
5615.707 ;  ;  ;  ;  ; 0.01590705 ;  ; 
5616.042 ;  ;  ;  ;  ; 0.01402471 ;  ; 
5616.377 ;  ;  ;  ;  ; 0.0125488 ;  ; 
5616.712 ;  ;  ;  ;  ; 0.01134869 ;  ; 
5617.047 ;  ;  ;  ;  ; 0.01034472 ;  ; 
5617.382 ;  ;  ;  ;  ; 0.009486955 ;  ; 
5617.717 ;  ;  ;  ;  ; 0.008742798 ;  ; 
5618.052 ;  ;  ;  ;  ; 0.008089891 ;  ; 
5618.722 ;  ;  ;  ;  ; 0.006997389 ;  ; 
5619.392 ;  ;  ;  ;  ; 0.006121309 ;  ; 
5620.029 ;  ;  ;  ;  ; 0.00543771 ;  ; 
5620.666 ;  ;  ;  ;  ; 0.00486603 ;  ; 
5621.303 ;  ;  ;  ;  ; 0.004382406 ;  ; 
5621.939 ;  ;  ;  ;  ; 0.003969688 ;  ; 
5622.576 ;  ;  ;  ;  ; 0.003613173 ;  ; 
5623.212 ;  ;  ;  ;  ; 0.003303733 ;  ; 
5623.849 ;  ;  ;  ;  ; 0.003032442 ;  ; 
5624.485 ;  ;  ;  ;  ; 0.002793918 ;  ; 
5625.759 ;  ;  ;  ;  ; 0.002394311 ;  ; 
5627.032 ;  ;  ;  ;  ; 0.002075698 ;  ; 
5628.305 ;  ;  ;  ;  ; 0.001817304 ;  ; 
5629.578 ;  ;  ;  ;  ; 0.001604778 ;  ; 
5630.785 ;  ;  ;  ;  ; 0.001436288 ;  ; 
5631.991 ;  ;  ;  ;  ; 0.001293521 ;  ; 
5633.198 ;  ;  ;  ;  ; 0.001171399 ;  ; 
5634.404 ;  ;  ;  ;  ; 0.001066218 ;  ; 
5635.611 ;  ;  ;  ;  ; 9.745784E-4 ;  ; 
5636.817 ;  ;  ;  ;  ; 8.942005E-4 ;  ; 
5639.229 ;  ;  ;  ;  ; 7.604566E-4 ;  ; 
5641.642 ;  ;  ;  ;  ; 6.546961E-4 ;  ; 
5644.054 ;  ;  ;  ;  ; 5.697466E-4 ;  ; 
5646.467 ;  ;  ;  ;  ; 5.004192E-4 ;  ; 
5648.879 ;  ;  ;  ;  ; 4.431411E-4 ;  ; 
5651.158 ;  ;  ;  ;  ; 3.976798E-4 ;  ; 
5653.436 ;  ;  ;  ;  ; 3.589534E-4 ;  ; 
5655.715 ;  ;  ;  ;  ; 3.256698E-4 ;  ; 
5657.993 ;  ;  ;  ;  ; 2.969544E-4 ;  ; 
5660.272 ;  ;  ;  ;  ; 2.721496E-4 ;  ; 
5662.55 ;  ;  ;  ;  ; 2.503038E-4 ;  ; 
5667.107 ;  ;  ;  ;  ; 2.135714E-4 ;  ; 
5671.664 ;  ;  ;  ;  ; 1.844623E-4 ;  ; 
5676.221 ;  ;  ;  ;  ; 1.610179E-4 ;  ; 
5680.778 ;  ;  ;  ;  ; 1.418567E-4 ;  ; 
5685.334 ;  ;  ;  ;  ; 1.259972E-4 ;  ; 
5689.623 ;  ;  ;  ;  ; 1.134357E-4 ;  ; 
5693.912 ;  ;  ;  ;  ; 1.027128E-4 ;  ; 
5698.201 ;  ;  ;  ;  ; 9.348584E-5 ;  ; 
5702.49 ;  ;  ;  ;  ; 8.548876E-5 ;  ; 
5706.779 ;  ;  ;  ;  ; 7.851247E-5 ;  ; 
5711.068 ;  ;  ;  ;  ; 7.244019E-5 ;  ; 
5719.646 ;  ;  ;  ;  ; 6.22823E-5 ;  ; 
5728.224 ;  ;  ;  ;  ; 5.416827E-5 ;  ; 
5736.802 ;  ;  ;  ;  ; 4.762334E-5 ;  ; 
5745.38 ;  ;  ;  ;  ; 4.226706E-5 ;  ; 
5753.957 ;  ;  ;  ;  ; 3.782825E-5 ;  ; 
5763.071 ;  ;  ;  ;  ; 3.389574E-5 ;  ; 
5772.185 ;  ;  ;  ;  ; 3.060112E-5 ;  ; 
5781.299 ;  ;  ;  ;  ; 2.781284E-5 ;  ; 
5790.413 ;  ;  ;  ;  ; 2.543165E-5 ;  ; 
5799.527 ;  ;  ;  ;  ; 2.341562E-5 ;  ; 
5808.641 ;  ;  ;  ;  ; 2.166947E-5 ;  ; 
5817.755 ;  ;  ;  ;  ; 2.008524E-5 ;  ; 
5826.869 ;  ;  ;  ;  ; 1.872673E-5 ;  ; 
5845.097 ;  ;  ;  ;  ; 1.643877E-5 ;  ; 
5863.325 ;  ;  ;  ;  ; 1.462531E-5 ;  ; 
5881.553 ;  ;  ;  ;  ; 1.316435E-5 ;  ; 
5899.781 ;  ;  ;  ;  ; 1.197057E-5 ;  ; 
5924.443 ;  ;  ;  ;  ; 1.068324E-5 ;  ; 
5949.104 ;  ;  ;  ;  ; 9.648472E-6 ;  ; 
5973.766 ;  ;  ;  ;  ; 8.850457E-6 ;  ; 
5998.427 ;  ;  ;  ;  ; 8.167132E-6 ;  ; 
6023.089 ;  ;  ;  ;  ; 7.59019E-6 ;  ; 
6047.75 ;  ;  ;  ;  ; 7.127142E-6 ;  ; 
6097.072 ;  ;  ;  ;  ; 6.391878E-6 ;  ; 
6146.395 ;  ;  ;  ;  ; 5.850019E-6 ;  ; 
6195.718 ;  ;  ;  ;  ; 5.454897E-6 ;  ; 
6294.363 ;  ;  ;  ;  ; 4.862946E-6 ;  ; 
6671.789 ;  ;  ;  ;  ; 3.963742E-6 ;  ; 
7049.215 ;  ;  ;  ;  ; 3.692088E-6 ;  ; 
7804.067 ;  ;  ;  ;  ; 3.566607E-6 ;  ; 
10000.0 ;  ;  ;  ;  ; 3.987984E-6 ;  ; 
11265.52 ;  ;  ;  ;  ; 7.238956E-6 ;  ; 
11289.25 ;  ;  ;  ;  ; 7.696453E-6 ;  ; 
11312.98 ;  ;  ;  ;  ; 8.264036E-6 ;  ; 
11336.71 ;  ;  ;  ;  ; 8.980417E-6 ;  ; 
11360.44 ;  ;  ;  ;  ; 9.902739E-6 ;  ; 
11384.17 ;  ;  ;  ;  ; 1.108516E-5 ;  ; 
11396.04 ;  ;  ;  ;  ; 1.183281E-5 ;  ; 
11407.9 ;  ;  ;  ;  ; 1.270783E-5 ;  ; 
11419.77 ;  ;  ;  ;  ; 1.374328E-5 ;  ; 
11431.63 ;  ;  ;  ;  ; 1.497896E-5 ;  ; 
11443.49 ;  ;  ;  ;  ; 1.64723E-5 ;  ; 
11455.35 ;  ;  ;  ;  ; 1.830101E-5 ;  ; 
11465.64 ;  ;  ;  ;  ; 2.024976E-5 ;  ; 
11475.92 ;  ;  ;  ;  ; 2.264385E-5 ;  ; 
11486.2 ;  ;  ;  ;  ; 2.551159E-5 ;  ; 
11496.48 ;  ;  ;  ;  ; 2.920736E-5 ;  ; 
11506.77 ;  ;  ;  ;  ; 3.39619E-5 ;  ; 
11511.91 ;  ;  ;  ;  ; 3.68634E-5 ;  ; 
11517.05 ;  ;  ;  ;  ; 4.021406E-5 ;  ; 
11522.19 ;  ;  ;  ;  ; 4.4111E-5 ;  ; 
11527.33 ;  ;  ;  ;  ; 4.867702E-5 ;  ; 
11532.47 ;  ;  ;  ;  ; 5.407399E-5 ;  ; 
11537.61 ;  ;  ;  ;  ; 6.051879E-5 ;  ; 
11542.36 ;  ;  ;  ;  ; 6.761782E-5 ;  ; 
11547.1 ;  ;  ;  ;  ; 7.605526E-5 ;  ; 
11551.85 ;  ;  ;  ;  ; 8.645897E-5 ;  ; 
11556.59 ;  ;  ;  ;  ; 9.929312E-5 ;  ; 
11561.34 ;  ;  ;  ;  ; 1.154328E-4 ;  ; 
11563.71 ;  ;  ;  ;  ; 1.250731E-4 ;  ; 
11566.08 ;  ;  ;  ;  ; 1.360283E-4 ;  ; 
11568.46 ;  ;  ;  ;  ; 1.486064E-4 ;  ; 
11570.83 ;  ;  ;  ;  ; 1.63017E-4 ;  ; 
11573.2 ;  ;  ;  ;  ; 1.797074E-4 ;  ; 
11575.57 ;  ;  ;  ;  ; 1.991839E-4 ;  ; 
11578.15 ;  ;  ;  ;  ; 2.242916E-4 ;  ; 
11580.72 ;  ;  ;  ;  ; 2.543417E-4 ;  ; 
11583.29 ;  ;  ;  ;  ; 2.90963E-4 ;  ; 
11585.86 ;  ;  ;  ;  ; 3.364956E-4 ;  ; 
11588.43 ;  ;  ;  ;  ; 3.94078E-4 ;  ; 
11589.72 ;  ;  ;  ;  ; 4.28869E-4 ;  ; 
11591.0 ;  ;  ;  ;  ; 4.682564E-4 ;  ; 
11592.29 ;  ;  ;  ;  ; 5.138317E-4 ;  ; 
11593.57 ;  ;  ;  ;  ; 5.661091E-4 ;  ; 
11594.86 ;  ;  ;  ;  ; 6.274773E-4 ;  ; 
11596.14 ;  ;  ;  ;  ; 6.989874E-4 ;  ; 
11597.53 ;  ;  ;  ;  ; 7.916828E-4 ;  ; 
11598.91 ;  ;  ;  ;  ; 9.035961E-4 ;  ; 
11600.3 ;  ;  ;  ;  ; 0.001042797 ;  ; 
11601.68 ;  ;  ;  ;  ; 0.001216658 ;  ; 
11602.38 ;  ;  ;  ;  ; 0.00132267 ;  ; 
11603.07 ;  ;  ;  ;  ; 0.001441966 ;  ; 
11603.76 ;  ;  ;  ;  ; 0.001578983 ;  ; 
