Incident energy ; MT=16 : (z,2n) ; MT=17 : (z,3n) ; MT=18 : (z,fission) ; MT=28 : (z,n+p) ; MT=41 : (z,2n+p) ; MT=102 : (z,γ) ; MT=103 : (z,p)
Incident energy ;  ;  ;  ;  ;  ;  ; 
Incident energy ; σ(E) ; σ(E) ; σ(E) ; σ(E) ; σ(E) ; σ(E) ; σ(E)
1.0E-5 ;  ;  ;  ;  ;  ; 2409.534 ; 
1.0625E-5 ;  ;  ;  ;  ;  ; 2337.584 ; 
1.125E-5 ;  ;  ;  ;  ;  ; 2271.715 ; 
1.1875E-5 ;  ;  ;  ;  ;  ; 2211.118 ; 
1.25E-5 ;  ;  ;  ;  ;  ; 2155.124 ; 
1.375E-5 ;  ;  ;  ;  ;  ; 2054.816 ; 
1.5E-5 ;  ;  ;  ;  ;  ; 1967.323 ; 
1.625E-5 ;  ;  ;  ;  ;  ; 1890.13 ; 
1.75E-5 ;  ;  ;  ;  ;  ; 1821.363 ; 
1.875E-5 ;  ;  ;  ;  ;  ; 1759.592 ; 
2.0E-5 ;  ;  ;  ;  ;  ; 1703.706 ; 
2.1875E-5 ;  ;  ;  ;  ;  ; 1629.038 ; 
2.375E-5 ;  ;  ;  ;  ;  ; 1563.396 ; 
2.5625E-5 ;  ;  ;  ;  ;  ; 1505.097 ; 
2.75E-5 ;  ;  ;  ;  ;  ; 1452.866 ; 
2.9375E-5 ;  ;  ;  ;  ;  ; 1405.72 ; 
3.125E-5 ;  ;  ;  ;  ;  ; 1362.882 ; 
3.3125E-5 ;  ;  ;  ;  ;  ; 1323.734 ; 
3.5E-5 ;  ;  ;  ;  ;  ; 1287.776 ; 
3.875E-5 ;  ;  ;  ;  ;  ; 1223.854 ; 
4.25E-5 ;  ;  ;  ;  ;  ; 1168.59 ; 
4.625E-5 ;  ;  ;  ;  ;  ; 1120.191 ; 
5.0E-5 ;  ;  ;  ;  ;  ; 1077.343 ; 
5.3125E-5 ;  ;  ;  ;  ;  ; 1045.159 ; 
5.625E-5 ;  ;  ;  ;  ;  ; 1015.695 ; 
5.9375E-5 ;  ;  ;  ;  ;  ; 988.5878 ; 
6.25E-5 ;  ;  ;  ;  ;  ; 963.5399 ; 
6.875E-5 ;  ;  ;  ;  ;  ; 918.668 ; 
7.5E-5 ;  ;  ;  ;  ;  ; 879.5278 ; 
8.125E-5 ;  ;  ;  ;  ;  ; 844.9943 ; 
8.75E-5 ;  ;  ;  ;  ;  ; 814.2293 ; 
9.375E-5 ;  ;  ;  ;  ;  ; 786.5935 ; 
1.0E-4 ;  ;  ;  ;  ;  ; 761.59 ; 
1.0625E-4 ;  ;  ;  ;  ;  ; 738.8257 ; 
1.125E-4 ;  ;  ;  ;  ;  ; 717.9851 ; 
1.1875E-4 ;  ;  ;  ;  ;  ; 698.8115 ; 
1.25E-4 ;  ;  ;  ;  ;  ; 681.094 ; 
1.375E-4 ;  ;  ;  ;  ;  ; 649.3534 ; 
1.5E-4 ;  ;  ;  ;  ;  ; 621.6661 ; 
1.625E-4 ;  ;  ;  ;  ;  ; 597.2367 ; 
1.75E-4 ;  ;  ;  ;  ;  ; 575.4724 ; 
1.875E-4 ;  ;  ;  ;  ;  ; 555.9211 ; 
2.0E-4 ;  ;  ;  ;  ;  ; 538.2315 ; 
2.1875E-4 ;  ;  ;  ;  ;  ; 514.5949 ; 
2.375E-4 ;  ;  ;  ;  ;  ; 493.8136 ; 
2.5625E-4 ;  ;  ;  ;  ;  ; 475.3552 ; 
2.75E-4 ;  ;  ;  ;  ;  ; 458.8166 ; 
2.9375E-4 ;  ;  ;  ;  ;  ; 443.8863 ; 
3.125E-4 ;  ;  ;  ;  ;  ; 430.3194 ; 
3.3125E-4 ;  ;  ;  ;  ;  ; 417.9201 ; 
3.5E-4 ;  ;  ;  ;  ;  ; 406.5298 ; 
3.875E-4 ;  ;  ;  ;  ;  ; 386.2788 ; 
4.25E-4 ;  ;  ;  ;  ;  ; 368.7675 ; 
4.625E-4 ;  ;  ;  ;  ;  ; 353.4285 ; 
5.0E-4 ;  ;  ;  ;  ;  ; 339.8465 ; 
5.3125E-4 ;  ;  ;  ;  ;  ; 329.6428 ; 
5.625E-4 ;  ;  ;  ;  ;  ; 320.3002 ; 
5.9375E-4 ;  ;  ;  ;  ;  ; 311.7038 ; 
6.25E-4 ;  ;  ;  ;  ;  ; 303.7592 ; 
6.875E-4 ;  ;  ;  ;  ;  ; 289.5238 ; 
7.5E-4 ;  ;  ;  ;  ;  ; 277.1033 ; 
8.125E-4 ;  ;  ;  ;  ;  ; 266.1414 ; 
8.75E-4 ;  ;  ;  ;  ;  ; 256.3731 ; 
9.375E-4 ;  ;  ;  ;  ;  ; 247.5959 ; 
0.001 ;  ;  ;  ;  ;  ; 239.6525 ; 
0.0010625 ;  ;  ;  ;  ;  ; 232.4185 ; 
0.001125 ;  ;  ;  ;  ;  ; 225.7939 ; 
0.0011875 ;  ;  ;  ;  ;  ; 219.6975 ; 
0.00125 ;  ;  ;  ;  ;  ; 214.0625 ; 
0.001375 ;  ;  ;  ;  ;  ; 203.9632 ; 
0.0015 ;  ;  ;  ;  ;  ; 195.1485 ; 
0.001625 ;  ;  ;  ;  ;  ; 187.3665 ; 
0.00175 ;  ;  ;  ;  ;  ; 180.4294 ; 
0.001875 ;  ;  ;  ;  ;  ; 174.1941 ; 
0.002 ;  ;  ;  ;  ;  ; 168.5493 ; 
0.0021875 ;  ;  ;  ;  ;  ; 161.0018 ; 
0.002375 ;  ;  ;  ;  ;  ; 154.3609 ; 
0.0025625 ;  ;  ;  ;  ;  ; 148.4579 ; 
0.00275 ;  ;  ;  ;  ;  ; 143.1652 ; 
0.0029375 ;  ;  ;  ;  ;  ; 138.3839 ; 
0.003125 ;  ;  ;  ;  ;  ; 134.0361 ; 
0.0033125 ;  ;  ;  ;  ;  ; 130.0596 ; 
0.0035 ;  ;  ;  ;  ;  ; 126.4038 ; 
0.003875 ;  ;  ;  ;  ;  ; 119.8961 ; 
0.00425 ;  ;  ;  ;  ;  ; 114.2594 ; 
0.004625 ;  ;  ;  ;  ;  ; 109.3141 ; 
0.005 ;  ;  ;  ;  ;  ; 104.9294 ; 
0.0053125 ;  ;  ;  ;  ;  ; 101.6319 ; 
0.005625 ;  ;  ;  ;  ;  ; 98.61011 ; 
0.0059375 ;  ;  ;  ;  ;  ; 95.82732 ; 
0.00625 ;  ;  ;  ;  ;  ; 93.25317 ; 
0.006875 ;  ;  ;  ;  ;  ; 88.63364 ; 
0.0075 ;  ;  ;  ;  ;  ; 84.59369 ; 
0.008125 ;  ;  ;  ;  ;  ; 81.02008 ; 
0.00875 ;  ;  ;  ;  ;  ; 77.8292 ; 
0.009375 ;  ;  ;  ;  ;  ; 74.95744 ; 
0.01 ;  ;  ;  ;  ;  ; 72.35522 ; 
0.010625 ;  ;  ;  ;  ;  ; 69.98309 ; 
0.01125 ;  ;  ;  ;  ;  ; 67.80909 ; 
0.011875 ;  ;  ;  ;  ;  ; 65.80682 ; 
0.0125 ;  ;  ;  ;  ;  ; 63.95418 ; 
0.01375 ;  ;  ;  ;  ;  ; 60.62685 ; 
0.015 ;  ;  ;  ;  ;  ; 57.7134 ; 
0.01625 ;  ;  ;  ;  ;  ; 55.1345 ; 
0.0175 ;  ;  ;  ;  ;  ; 52.83166 ; 
0.01875 ;  ;  ;  ;  ;  ; 50.75946 ; 
0.02 ;  ;  ;  ;  ;  ; 48.88192 ; 
0.021325 ;  ;  ;  ;  ;  ; 47.07242 ; 
0.02265 ;  ;  ;  ;  ;  ; 45.42218 ; 
0.023975 ;  ;  ;  ;  ;  ; 43.90932 ; 
0.0253 ;  ;  ;  ;  ;  ; 42.5159 ; 
0.02684375 ;  ;  ;  ;  ;  ; 41.02338 ; 
0.0283875 ;  ;  ;  ;  ;  ; 39.65356 ; 
0.02993125 ;  ;  ;  ;  ;  ; 38.39103 ; 
0.031475 ;  ;  ;  ;  ;  ; 37.22338 ; 
0.03301875 ;  ;  ;  ;  ;  ; 36.14005 ; 
0.0345625 ;  ;  ;  ;  ;  ; 35.13138 ; 
0.03765 ;  ;  ;  ;  ;  ; 33.30383 ; 
0.0407375 ;  ;  ;  ;  ;  ; 31.68762 ; 
0.043825 ;  ;  ;  ;  ;  ; 30.24805 ; 
0.0469125 ;  ;  ;  ;  ;  ; 28.9574 ; 
0.05 ;  ;  ;  ;  ;  ; 27.79293 ; 
0.053125 ;  ;  ;  ;  ;  ; 26.72409 ; 
0.05625 ;  ;  ;  ;  ;  ; 25.75043 ; 
0.059375 ;  ;  ;  ;  ;  ; 24.8595 ; 
0.0625 ;  ;  ;  ;  ;  ; 24.04099 ; 
0.065625 ;  ;  ;  ;  ;  ; 23.28638 ; 
0.06875 ;  ;  ;  ;  ;  ; 22.58871 ; 
0.071875 ;  ;  ;  ;  ;  ; 21.94256 ; 
0.075 ;  ;  ;  ;  ;  ; 21.34274 ; 
0.08125 ;  ;  ;  ;  ;  ; 20.25883 ; 
0.0875 ;  ;  ;  ;  ;  ; 19.3045 ; 
0.09375 ;  ;  ;  ;  ;  ; 18.4608 ; 
0.1 ;  ;  ;  ;  ;  ; 17.71046 ; 
0.10625 ;  ;  ;  ;  ;  ; 17.03939 ; 
0.1125 ;  ;  ;  ;  ;  ; 16.4362 ; 
0.11875 ;  ;  ;  ;  ;  ; 15.89164 ; 
0.125 ;  ;  ;  ;  ;  ; 15.3981 ; 
0.13125 ;  ;  ;  ;  ;  ; 14.94921 ; 
0.1375 ;  ;  ;  ;  ;  ; 14.53972 ; 
0.14375 ;  ;  ;  ;  ;  ; 14.16569 ; 
0.15 ;  ;  ;  ;  ;  ; 13.82444 ; 
0.1625 ;  ;  ;  ;  ;  ; 13.21979 ; 
0.175 ;  ;  ;  ;  ;  ; 12.70199 ; 
0.1875 ;  ;  ;  ;  ;  ; 12.2583 ; 
0.2 ;  ;  ;  ;  ;  ; 11.87556 ; 
0.209375 ;  ;  ;  ;  ;  ; 11.62333 ; 
0.21875 ;  ;  ;  ;  ;  ; 11.39959 ; 
0.2328125 ;  ;  ;  ;  ;  ; 11.10557 ; 
0.246875 ;  ;  ;  ;  ;  ; 10.85264 ; 
0.2609375 ;  ;  ;  ;  ;  ; 10.63725 ; 
0.275 ;  ;  ;  ;  ;  ; 10.45486 ; 
0.29375 ;  ;  ;  ;  ;  ; 10.25596 ; 
0.3125 ;  ;  ;  ;  ;  ; 10.10073 ; 
0.33125 ;  ;  ;  ;  ;  ; 9.983313 ; 
0.35 ;  ;  ;  ;  ;  ; 9.899226 ; 
0.36875 ;  ;  ;  ;  ;  ; 9.84501 ; 
0.3875 ;  ;  ;  ;  ;  ; 9.818031 ; 
0.40625 ;  ;  ;  ;  ;  ; 9.816318 ; 
0.425 ;  ;  ;  ;  ;  ; 9.83846 ; 
0.5 ;  ;  ;  ;  ;  ; 10.16394 ; 
0.560714 ;  ;  ;  ;  ;  ; 10.70947 ; 
0.591071 ;  ;  ;  ;  ;  ; 11.09033 ; 
0.6214279 ;  ;  ;  ;  ;  ; 11.60069 ; 
0.6517849 ;  ;  ;  ;  ;  ; 12.29559 ; 
0.6821418 ;  ;  ;  ;  ;  ; 13.30164 ; 
0.6973203 ;  ;  ;  ;  ;  ; 14.0677 ; 
0.7124988 ;  ;  ;  ;  ;  ; 15.19156 ; 
0.7200881 ;  ;  ;  ;  ;  ; 15.998 ; 
0.7276773 ;  ;  ;  ;  ;  ; 17.08364 ; 
0.7352665 ;  ;  ;  ;  ;  ; 18.61569 ; 
0.7390611 ;  ;  ;  ;  ;  ; 19.63323 ; 
0.7428557 ;  ;  ;  ;  ;  ; 20.88304 ; 
0.7481815 ;  ;  ;  ;  ;  ; 23.1477 ; 
0.7535073 ;  ;  ;  ;  ;  ; 26.17704 ; 
0.7588331 ;  ;  ;  ;  ;  ; 30.12075 ; 
0.7641588 ;  ;  ;  ;  ;  ; 34.98569 ; 
0.7765794 ;  ;  ;  ;  ;  ; 47.74547 ; 
0.7796846 ;  ;  ;  ;  ;  ; 50.37322 ; 
0.7827897 ;  ;  ;  ;  ;  ; 52.39556 ; 
0.7858949 ;  ;  ;  ;  ;  ; 53.65667 ; 
0.789 ;  ;  ;  ;  ;  ; 54.05834 ; 
0.7918005 ;  ;  ;  ;  ;  ; 53.66095 ; 
0.794601 ;  ;  ;  ;  ;  ; 52.57795 ; 
0.8002019 ;  ;  ;  ;  ;  ; 48.71487 ; 
0.8114038 ;  ;  ;  ;  ;  ; 37.905 ; 
0.8155864 ;  ;  ;  ;  ;  ; 34.07703 ; 
0.819769 ;  ;  ;  ;  ;  ; 30.75017 ; 
0.8239516 ;  ;  ;  ;  ;  ; 27.99585 ; 
0.8281341 ;  ;  ;  ;  ;  ; 25.79711 ; 
0.8323167 ;  ;  ;  ;  ;  ; 24.08688 ; 
0.8364993 ;  ;  ;  ;  ;  ; 22.77967 ; 
0.8406819 ;  ;  ;  ;  ;  ; 21.79163 ; 
0.8448644 ;  ;  ;  ;  ;  ; 21.05049 ; 
0.8532296 ;  ;  ;  ;  ;  ; 20.09112 ; 
0.8615947 ;  ;  ;  ;  ;  ; 19.58679 ; 
0.878325 ;  ;  ;  ;  ;  ; 19.32222 ; 
0.8935344 ;  ;  ;  ;  ;  ; 19.54479 ; 
0.9087438 ;  ;  ;  ;  ;  ; 20.0139 ; 
0.9391625 ;  ;  ;  ;  ;  ; 21.47604 ; 
0.9695813 ;  ;  ;  ;  ;  ; 23.52849 ; 
1.0 ;  ;  ;  ;  ;  ; 26.19963 ; 
1.022451 ;  ;  ;  ;  ;  ; 28.65976 ; 
1.044902 ;  ;  ;  ;  ;  ; 31.65832 ; 
1.067353 ;  ;  ;  ;  ;  ; 35.35065 ; 
1.089804 ;  ;  ;  ;  ;  ; 39.97171 ; 
1.112255 ;  ;  ;  ;  ;  ; 45.87265 ; 
1.123481 ;  ;  ;  ;  ;  ; 49.45355 ; 
1.134706 ;  ;  ;  ;  ;  ; 53.56594 ; 
1.145932 ;  ;  ;  ;  ;  ; 58.34304 ; 
1.157157 ;  ;  ;  ;  ;  ; 63.96675 ; 
1.168382 ;  ;  ;  ;  ;  ; 70.66629 ; 
1.179607 ;  ;  ;  ;  ;  ; 78.73978 ; 
1.190209 ;  ;  ;  ;  ;  ; 88.00078 ; 
1.200811 ;  ;  ;  ;  ;  ; 99.35715 ; 
1.211413 ;  ;  ;  ;  ;  ; 113.5215 ; 
1.222014 ;  ;  ;  ;  ;  ; 131.5391 ; 
1.227315 ;  ;  ;  ;  ;  ; 142.4669 ; 
1.232616 ;  ;  ;  ;  ;  ; 155.0294 ; 
1.237917 ;  ;  ;  ;  ;  ; 169.589 ; 
1.243218 ;  ;  ;  ;  ;  ; 186.6155 ; 
1.248519 ;  ;  ;  ;  ;  ; 206.7222 ; 
1.25382 ;  ;  ;  ;  ;  ; 230.7164 ; 
1.259121 ;  ;  ;  ;  ;  ; 259.6702 ; 
1.264421 ;  ;  ;  ;  ;  ; 295.0098 ; 
1.269722 ;  ;  ;  ;  ;  ; 338.6643 ; 
1.275023 ;  ;  ;  ;  ;  ; 393.1609 ; 
1.280324 ;  ;  ;  ;  ;  ; 461.7569 ; 
1.282975 ;  ;  ;  ;  ;  ; 502.5698 ; 
1.285625 ;  ;  ;  ;  ;  ; 548.4304 ; 
1.288276 ;  ;  ;  ;  ;  ; 599.9428 ; 
1.290926 ;  ;  ;  ;  ;  ; 657.6296 ; 
1.296227 ;  ;  ;  ;  ;  ; 793.6092 ; 
1.301528 ;  ;  ;  ;  ;  ; 959.2194 ; 
1.306828 ;  ;  ;  ;  ;  ; 1154.142 ; 
1.310422 ;  ;  ;  ;  ;  ; 1300.57 ; 
1.314015 ;  ;  ;  ;  ;  ; 1454.812 ; 
1.317609 ;  ;  ;  ;  ;  ; 1612.169 ; 
1.321202 ;  ;  ;  ;  ;  ; 1766.437 ; 
1.328389 ;  ;  ;  ;  ;  ; 2036.968 ; 
1.331982 ;  ;  ;  ;  ;  ; 2138.338 ; 
1.335575 ;  ;  ;  ;  ;  ; 2208.438 ; 
1.341 ;  ;  ;  ;  ;  ; 2245.697 ; 
1.344391 ;  ;  ;  ;  ;  ; 2224.968 ; 
1.347782 ;  ;  ;  ;  ;  ; 2171.623 ; 
1.351173 ;  ;  ;  ;  ;  ; 2088.9 ; 
1.354563 ;  ;  ;  ;  ;  ; 1981.602 ; 
1.359656 ;  ;  ;  ;  ;  ; 1787.011 ; 
1.364748 ;  ;  ;  ;  ;  ; 1571.102 ; 
1.36984 ;  ;  ;  ;  ;  ; 1353.208 ; 
1.374932 ;  ;  ;  ;  ;  ; 1148.331 ; 
1.380024 ;  ;  ;  ;  ;  ; 965.9572 ; 
1.385116 ;  ;  ;  ;  ;  ; 810.3524 ; 
1.390208 ;  ;  ;  ;  ;  ; 681.7476 ; 
1.3953 ;  ;  ;  ;  ;  ; 577.8213 ; 
1.399375 ;  ;  ;  ;  ;  ; 510.0592 ; 
1.40345 ;  ;  ;  ;  ;  ; 453.8658 ; 
1.407525 ;  ;  ;  ;  ;  ; 407.3668 ; 
1.4116 ;  ;  ;  ;  ;  ; 368.8896 ; 
1.415675 ;  ;  ;  ;  ;  ; 337.0043 ; 
1.41975 ;  ;  ;  ;  ;  ; 310.5241 ; 
1.423825 ;  ;  ;  ;  ;  ; 288.484 ; 
1.4279 ;  ;  ;  ;  ;  ; 270.1088 ; 
1.431975 ;  ;  ;  ;  ;  ; 254.7815 ; 
1.43605 ;  ;  ;  ;  ;  ; 242.0123 ; 
1.4442 ;  ;  ;  ;  ;  ; 222.6786 ; 
1.45235 ;  ;  ;  ;  ;  ; 209.8782 ; 
1.4605 ;  ;  ;  ;  ;  ; 202.2153 ; 
1.46865 ;  ;  ;  ;  ;  ; 198.8309 ; 
1.479347 ;  ;  ;  ;  ;  ; 200.0963 ; 
1.490044 ;  ;  ;  ;  ;  ; 207.5116 ; 
1.500741 ;  ;  ;  ;  ;  ; 221.3641 ; 
1.511438 ;  ;  ;  ;  ;  ; 242.6514 ; 
1.516787 ;  ;  ;  ;  ;  ; 256.6325 ; 
1.522135 ;  ;  ;  ;  ;  ; 273.2709 ; 
1.527484 ;  ;  ;  ;  ;  ; 293.0235 ; 
1.532832 ;  ;  ;  ;  ;  ; 316.4699 ; 
1.538181 ;  ;  ;  ;  ;  ; 344.3876 ; 
1.543529 ;  ;  ;  ;  ;  ; 377.7811 ; 
1.548877 ;  ;  ;  ;  ;  ; 418.0053 ; 
1.554225 ;  ;  ;  ;  ;  ; 466.8702 ; 
1.559829 ;  ;  ;  ;  ;  ; 530.015 ; 
1.565432 ;  ;  ;  ;  ;  ; 609.1363 ; 
1.571035 ;  ;  ;  ;  ;  ; 709.4267 ; 
1.573837 ;  ;  ;  ;  ;  ; 769.6012 ; 
1.576638 ;  ;  ;  ;  ;  ; 837.7776 ; 
1.57944 ;  ;  ;  ;  ;  ; 915.1667 ; 
1.582241 ;  ;  ;  ;  ;  ; 1002.987 ; 
1.585043 ;  ;  ;  ;  ;  ; 1102.664 ; 
1.587844 ;  ;  ;  ;  ;  ; 1215.543 ; 
1.590646 ;  ;  ;  ;  ;  ; 1343.115 ; 
1.593447 ;  ;  ;  ;  ;  ; 1486.615 ; 
1.596249 ;  ;  ;  ;  ;  ; 1647.287 ; 
1.59905 ;  ;  ;  ;  ;  ; 1825.847 ; 
1.602107 ;  ;  ;  ;  ;  ; 2041.638 ; 
1.605163 ;  ;  ;  ;  ;  ; 2278.835 ; 
1.608219 ;  ;  ;  ;  ;  ; 2536.095 ; 
1.611275 ;  ;  ;  ;  ;  ; 2810.728 ; 
1.617388 ;  ;  ;  ;  ;  ; 3394.286 ; 
1.6235 ;  ;  ;  ;  ;  ; 3979.305 ; 
1.628625 ;  ;  ;  ;  ;  ; 4421.72 ; 
1.63375 ;  ;  ;  ;  ;  ; 4773.838 ; 
1.638875 ;  ;  ;  ;  ;  ; 4996.902 ; 
1.644 ;  ;  ;  ;  ;  ; 5064.762 ; 
1.649125 ;  ;  ;  ;  ;  ; 4969.406 ; 
1.653013 ;  ;  ;  ;  ;  ; 4794.752 ; 
1.656901 ;  ;  ;  ;  ;  ; 4544.6 ; 
1.660789 ;  ;  ;  ;  ;  ; 4235.191 ; 
1.664676 ;  ;  ;  ;  ;  ; 3885.197 ; 
1.672452 ;  ;  ;  ;  ;  ; 3137.231 ; 
1.680227 ;  ;  ;  ;  ;  ; 2427.795 ; 
1.684814 ;  ;  ;  ;  ;  ; 2060.123 ; 
1.689401 ;  ;  ;  ;  ;  ; 1739.401 ; 
1.693988 ;  ;  ;  ;  ;  ; 1466.57 ; 
1.698575 ;  ;  ;  ;  ;  ; 1238.816 ; 
1.703162 ;  ;  ;  ;  ;  ; 1051.148 ; 
1.707749 ;  ;  ;  ;  ;  ; 897.6755 ; 
1.712336 ;  ;  ;  ;  ;  ; 772.5084 ; 
1.716923 ;  ;  ;  ;  ;  ; 670.2881 ; 
1.720855 ;  ;  ;  ;  ;  ; 597.4325 ; 
1.724787 ;  ;  ;  ;  ;  ; 535.6523 ; 
1.728719 ;  ;  ;  ;  ;  ; 482.9615 ; 
1.73265 ;  ;  ;  ;  ;  ; 437.7528 ; 
1.736582 ;  ;  ;  ;  ;  ; 398.6963 ; 
1.740513 ;  ;  ;  ;  ;  ; 364.7597 ; 
1.744445 ;  ;  ;  ;  ;  ; 335.0786 ; 
1.748376 ;  ;  ;  ;  ;  ; 308.9843 ; 
1.75624 ;  ;  ;  ;  ;  ; 265.4058 ; 
1.764103 ;  ;  ;  ;  ;  ; 230.6992 ; 
1.771966 ;  ;  ;  ;  ;  ; 202.5818 ; 
1.779829 ;  ;  ;  ;  ;  ; 179.4605 ; 
1.787037 ;  ;  ;  ;  ;  ; 161.6764 ; 
1.794245 ;  ;  ;  ;  ;  ; 146.4867 ; 
1.801453 ;  ;  ;  ;  ;  ; 133.4042 ; 
1.808661 ;  ;  ;  ;  ;  ; 122.0541 ; 
1.815869 ;  ;  ;  ;  ;  ; 112.1435 ; 
1.823077 ;  ;  ;  ;  ;  ; 103.4391 ; 
1.837493 ;  ;  ;  ;  ;  ; 88.93291 ; 
1.851909 ;  ;  ;  ;  ;  ; 77.41007 ; 
1.866325 ;  ;  ;  ;  ;  ; 68.10856 ; 
1.880741 ;  ;  ;  ;  ;  ; 60.50004 ; 
1.895157 ;  ;  ;  ;  ;  ; 54.20171 ; 
1.908263 ;  ;  ;  ;  ;  ; 49.36584 ; 
1.921368 ;  ;  ;  ;  ;  ; 45.2052 ; 
1.934474 ;  ;  ;  ;  ;  ; 41.59873 ; 
1.947579 ;  ;  ;  ;  ;  ; 38.45801 ; 
1.97379 ;  ;  ;  ;  ;  ; 33.29953 ; 
2.0 ;  ;  ;  ;  ;  ; 29.29294 ; 
2.026438 ;  ;  ;  ;  ;  ; 26.11714 ; 
2.052875 ;  ;  ;  ;  ;  ; 23.60546 ; 
2.079313 ;  ;  ;  ;  ;  ; 21.6175 ; 
2.10575 ;  ;  ;  ;  ;  ; 20.05925 ; 
2.132188 ;  ;  ;  ;  ;  ; 18.87259 ; 
2.158625 ;  ;  ;  ;  ;  ; 18.03417 ; 
2.185063 ;  ;  ;  ;  ;  ; 17.56461 ; 
2.2115 ;  ;  ;  ;  ;  ; 17.55985 ; 
2.224058 ;  ;  ;  ;  ;  ; 17.78888 ; 
2.236616 ;  ;  ;  ;  ;  ; 18.2451 ; 
2.249174 ;  ;  ;  ;  ;  ; 19.04646 ; 
2.261732 ;  ;  ;  ;  ;  ; 20.41853 ; 
2.268011 ;  ;  ;  ;  ;  ; 21.4465 ; 
2.27429 ;  ;  ;  ;  ;  ; 22.81648 ; 
2.280569 ;  ;  ;  ;  ;  ; 24.65657 ; 
2.286848 ;  ;  ;  ;  ;  ; 27.13625 ; 
2.293127 ;  ;  ;  ;  ;  ; 30.46363 ; 
2.299406 ;  ;  ;  ;  ;  ; 34.86667 ; 
2.305685 ;  ;  ;  ;  ;  ; 40.55014 ; 
2.311963 ;  ;  ;  ;  ;  ; 47.6247 ; 
2.318573 ;  ;  ;  ;  ;  ; 56.49773 ; 
2.325182 ;  ;  ;  ;  ;  ; 66.43355 ; 
2.331791 ;  ;  ;  ;  ;  ; 76.65962 ; 
2.3384 ;  ;  ;  ;  ;  ; 86.08265 ; 
2.3428 ;  ;  ;  ;  ;  ; 91.3021 ; 
2.3472 ;  ;  ;  ;  ;  ; 95.27584 ; 
2.3516 ;  ;  ;  ;  ;  ; 97.72904 ; 
2.356 ;  ;  ;  ;  ;  ; 98.48745 ; 
2.3604 ;  ;  ;  ;  ;  ; 97.49965 ; 
2.3648 ;  ;  ;  ;  ;  ; 94.84338 ; 
2.3692 ;  ;  ;  ;  ;  ; 90.7149 ; 
2.3736 ;  ;  ;  ;  ;  ; 85.40348 ; 
2.383756 ;  ;  ;  ;  ;  ; 70.55655 ; 
2.393912 ;  ;  ;  ;  ;  ; 55.45991 ; 
2.39899 ;  ;  ;  ;  ;  ; 48.78095 ; 
2.404068 ;  ;  ;  ;  ;  ; 42.94805 ; 
2.409146 ;  ;  ;  ;  ;  ; 38.01692 ; 
2.414223 ;  ;  ;  ;  ;  ; 33.95918 ; 
2.418455 ;  ;  ;  ;  ;  ; 31.18415 ; 
2.422686 ;  ;  ;  ;  ;  ; 28.89439 ; 
2.426918 ;  ;  ;  ;  ;  ; 27.02078 ; 
2.431149 ;  ;  ;  ;  ;  ; 25.4981 ; 
2.439612 ;  ;  ;  ;  ;  ; 23.27033 ; 
2.448074 ;  ;  ;  ;  ;  ; 21.82394 ; 
2.456537 ;  ;  ;  ;  ;  ; 20.89446 ; 
2.465 ;  ;  ;  ;  ;  ; 20.31436 ; 
2.481925 ;  ;  ;  ;  ;  ; 19.83016 ; 
2.502236 ;  ;  ;  ;  ;  ; 20.01178 ; 
2.522547 ;  ;  ;  ;  ;  ; 20.77059 ; 
2.542858 ;  ;  ;  ;  ;  ; 22.02506 ; 
2.563169 ;  ;  ;  ;  ;  ; 23.81393 ; 
2.58348 ;  ;  ;  ;  ;  ; 26.25255 ; 
2.603791 ;  ;  ;  ;  ;  ; 29.53272 ; 
2.613947 ;  ;  ;  ;  ;  ; 31.58099 ; 
2.624102 ;  ;  ;  ;  ;  ; 33.97241 ; 
2.634258 ;  ;  ;  ;  ;  ; 36.78045 ; 
2.644413 ;  ;  ;  ;  ;  ; 40.09953 ; 
2.656262 ;  ;  ;  ;  ;  ; 44.78866 ; 
2.66811 ;  ;  ;  ;  ;  ; 50.62581 ; 
2.679958 ;  ;  ;  ;  ;  ; 58.02423 ; 
2.685882 ;  ;  ;  ;  ;  ; 62.4939 ; 
2.691806 ;  ;  ;  ;  ;  ; 67.61369 ; 
2.69773 ;  ;  ;  ;  ;  ; 73.51994 ; 
2.703654 ;  ;  ;  ;  ;  ; 80.38685 ; 
2.709578 ;  ;  ;  ;  ;  ; 88.43946 ; 
2.715502 ;  ;  ;  ;  ;  ; 97.97166 ; 
2.721426 ;  ;  ;  ;  ;  ; 109.3702 ; 
2.72735 ;  ;  ;  ;  ;  ; 123.1459 ; 
2.733274 ;  ;  ;  ;  ;  ; 139.9721 ; 
2.739198 ;  ;  ;  ;  ;  ; 160.7255 ; 
2.745122 ;  ;  ;  ;  ;  ; 186.5234 ; 
2.751046 ;  ;  ;  ;  ;  ; 218.7402 ; 
2.75697 ;  ;  ;  ;  ;  ; 258.9805 ; 
2.762894 ;  ;  ;  ;  ;  ; 308.9787 ; 
2.768818 ;  ;  ;  ;  ;  ; 370.3939 ; 
2.774742 ;  ;  ;  ;  ;  ; 444.4837 ; 
2.780666 ;  ;  ;  ;  ;  ; 531.6673 ; 
2.78659 ;  ;  ;  ;  ;  ; 631.0332 ; 
2.790934 ;  ;  ;  ;  ;  ; 710.1629 ; 
2.795277 ;  ;  ;  ;  ;  ; 792.6783 ; 
2.803964 ;  ;  ;  ;  ;  ; 958.1126 ; 
2.812651 ;  ;  ;  ;  ;  ; 1103.502 ; 
2.816995 ;  ;  ;  ;  ;  ; 1160.432 ; 
2.821338 ;  ;  ;  ;  ;  ; 1202.864 ; 
2.825669 ;  ;  ;  ;  ;  ; 1228.518 ; 
2.83 ;  ;  ;  ;  ;  ; 1236.156 ; 
2.835775 ;  ;  ;  ;  ;  ; 1217.771 ; 
2.84155 ;  ;  ;  ;  ;  ; 1168.61 ; 
2.847 ;  ;  ;  ;  ;  ; 1098.179 ; 
2.852449 ;  ;  ;  ;  ;  ; 1010.147 ; 
2.863347 ;  ;  ;  ;  ;  ; 807.0189 ; 
2.874246 ;  ;  ;  ;  ;  ; 606.6422 ; 
2.879695 ;  ;  ;  ;  ;  ; 517.8646 ; 
2.885144 ;  ;  ;  ;  ;  ; 439.4674 ; 
2.888649 ;  ;  ;  ;  ;  ; 394.8239 ; 
2.892154 ;  ;  ;  ;  ;  ; 354.6621 ; 
2.895659 ;  ;  ;  ;  ;  ; 318.8036 ; 
2.899164 ;  ;  ;  ;  ;  ; 286.9854 ; 
2.902669 ;  ;  ;  ;  ;  ; 258.8906 ; 
2.906174 ;  ;  ;  ;  ;  ; 234.1737 ; 
2.909679 ;  ;  ;  ;  ;  ; 212.4819 ; 
2.913183 ;  ;  ;  ;  ;  ; 193.4748 ; 
2.916688 ;  ;  ;  ;  ;  ; 176.8153 ; 
2.920193 ;  ;  ;  ;  ;  ; 162.2082 ; 
2.923698 ;  ;  ;  ;  ;  ; 149.3821 ; 
2.927202 ;  ;  ;  ;  ;  ; 138.099 ; 
2.934212 ;  ;  ;  ;  ;  ; 119.3296 ; 
2.941221 ;  ;  ;  ;  ;  ; 104.539 ; 
2.948732 ;  ;  ;  ;  ;  ; 91.97029 ; 
2.956242 ;  ;  ;  ;  ;  ; 81.94044 ; 
2.963752 ;  ;  ;  ;  ;  ; 73.82565 ; 
2.971262 ;  ;  ;  ;  ;  ; 67.18341 ; 
2.978773 ;  ;  ;  ;  ;  ; 61.69334 ; 
2.986283 ;  ;  ;  ;  ;  ; 57.12167 ; 
2.993793 ;  ;  ;  ;  ;  ; 53.29128 ; 
3.001303 ;  ;  ;  ;  ;  ; 50.06793 ; 
3.016324 ;  ;  ;  ;  ;  ; 45.05111 ; 
3.031344 ;  ;  ;  ;  ;  ; 41.48914 ; 
3.046365 ;  ;  ;  ;  ;  ; 39.02403 ; 
3.061385 ;  ;  ;  ;  ;  ; 37.43406 ; 
3.077407 ;  ;  ;  ;  ;  ; 36.54872 ; 
3.093429 ;  ;  ;  ;  ;  ; 36.40898 ; 
3.111454 ;  ;  ;  ;  ;  ; 37.10072 ; 
3.129478 ;  ;  ;  ;  ;  ; 38.72066 ; 
3.147503 ;  ;  ;  ;  ;  ; 41.38389 ; 
3.165527 ;  ;  ;  ;  ;  ; 45.31061 ; 
3.183552 ;  ;  ;  ;  ;  ; 50.8737 ; 
3.192564 ;  ;  ;  ;  ;  ; 54.4498 ; 
3.201576 ;  ;  ;  ;  ;  ; 58.69845 ; 
3.210589 ;  ;  ;  ;  ;  ; 63.77043 ; 
3.219601 ;  ;  ;  ;  ;  ; 69.86443 ; 
3.228613 ;  ;  ;  ;  ;  ; 77.2505 ; 
3.237625 ;  ;  ;  ;  ;  ; 86.29987 ; 
3.246638 ;  ;  ;  ;  ;  ; 97.53886 ; 
3.25565 ;  ;  ;  ;  ;  ; 111.7304 ; 
3.260157 ;  ;  ;  ;  ;  ; 120.2747 ; 
3.264663 ;  ;  ;  ;  ;  ; 130.0283 ; 
3.269169 ;  ;  ;  ;  ;  ; 141.2355 ; 
3.273675 ;  ;  ;  ;  ;  ; 154.199 ; 
3.278182 ;  ;  ;  ;  ;  ; 169.2999 ; 
3.282688 ;  ;  ;  ;  ;  ; 187.0002 ; 
3.287194 ;  ;  ;  ;  ;  ; 207.8808 ; 
3.2917 ;  ;  ;  ;  ;  ; 232.6453 ; 
3.296206 ;  ;  ;  ;  ;  ; 262.136 ; 
3.300712 ;  ;  ;  ;  ;  ; 297.3397 ; 
3.305218 ;  ;  ;  ;  ;  ; 339.3797 ; 
3.309724 ;  ;  ;  ;  ;  ; 389.4887 ; 
3.313229 ;  ;  ;  ;  ;  ; 434.8705 ; 
3.316734 ;  ;  ;  ;  ;  ; 486.5138 ; 
3.320239 ;  ;  ;  ;  ;  ; 544.975 ; 
3.323744 ;  ;  ;  ;  ;  ; 610.7269 ; 
3.327249 ;  ;  ;  ;  ;  ; 684.1109 ; 
3.330754 ;  ;  ;  ;  ;  ; 765.2845 ; 
3.334259 ;  ;  ;  ;  ;  ; 854.1676 ; 
3.337763 ;  ;  ;  ;  ;  ; 950.3604 ; 
3.341584 ;  ;  ;  ;  ;  ; 1062.775 ; 
3.345404 ;  ;  ;  ;  ;  ; 1181.611 ; 
3.349224 ;  ;  ;  ;  ;  ; 1304.932 ; 
3.353044 ;  ;  ;  ;  ;  ; 1430.239 ; 
3.360685 ;  ;  ;  ;  ;  ; 1674.56 ; 
3.368325 ;  ;  ;  ;  ;  ; 1887.101 ; 
3.372744 ;  ;  ;  ;  ;  ; 1984.393 ; 
3.377163 ;  ;  ;  ;  ;  ; 2056.851 ; 
3.381582 ;  ;  ;  ;  ;  ; 2100.805 ; 
3.386 ;  ;  ;  ;  ;  ; 2113.984 ; 
3.389788 ;  ;  ;  ;  ;  ; 2100.24 ; 
3.393575 ;  ;  ;  ;  ;  ; 2063.936 ; 
3.397666 ;  ;  ;  ;  ;  ; 2001.023 ; 
3.401756 ;  ;  ;  ;  ;  ; 1916.253 ; 
3.409937 ;  ;  ;  ;  ;  ; 1696.0 ; 
3.418118 ;  ;  ;  ;  ;  ; 1436.753 ; 
3.426298 ;  ;  ;  ;  ;  ; 1171.859 ; 
3.431323 ;  ;  ;  ;  ;  ; 1018.009 ; 
3.436347 ;  ;  ;  ;  ;  ; 876.1782 ; 
3.441372 ;  ;  ;  ;  ;  ; 748.8312 ; 
3.446396 ;  ;  ;  ;  ;  ; 637.1296 ; 
3.451421 ;  ;  ;  ;  ;  ; 540.9966 ; 
